time,x,y,theta,left_vel,right_vel
0.0,1.0,0.0,1.5786512774347865,0.2923547348299544,0.37597990621000255
0.05,0.9998766324816606,0.0157053795390641,1.586512043544511,0.27123708014114384,0.39682966928918334
0.1,0.9995065603657316,0.0313952597646566,1.602262684194618,0.2496966116614783,0.4176289890551083
0.15,0.99888987496197,0.0470541566592571,1.6180833304945137,0.24861359540145,0.41747899923234344
0.2,0.9980267284282716,0.0626666167821521,1.634009380114826,0.24709678882242372,0.4172743134428424
0.25,0.996917333733128,0.0782172325201154,1.6500767051231522,0.2451456139740616,0.41702024608057153
0.3,0.99556196460308,0.0936906572928623,1.6663218109508495,0.24275933741511085,0.4167236495045732
0.35,0.9939609554551796,0.1090716206982712,1.682781995795971,0.23993707971254458,0.4163929268066413
0.4,0.992114701314478,0.1243449435824274,1.69949551020454,0.23667782971005927,0.41603804515314186
0.45,0.9900236577165576,0.1394955530196146,1.7165017162992706,0.23298046535415437,0.41567054813688376
0.5,0.9876883405951378,0.1545084971874737,1.733841245767693,0.22884378337394023,0.41530356509382926
0.55,0.985109326154774,0.1693689601226457,1.7515561552626098,0.22426654071601831,0.4149518147514264
0.6000000000000001,0.9822872507286888,0.184062276342339,1.7696900772863495,0.21924751135816523,0.4146315998570148
0.65,0.9792228106217656,0.1985739453173903,1.7882883639003937,0.21378556298415097,0.41436078856204145
0.7000000000000001,0.9759167619387474,0.2128896457825363,1.8073982196949927,0.2078797590130549,0.41415877728840256
0.75,0.9723699203976766,0.2269952498697733,1.8270688193361588,0.2015294926541149,0.41404642855477863
0.8,0.9685831611286312,0.2408768370508576,1.847351403644318,0.19473466100528117,0.4140459757801763
0.8500000000000001,0.964557418457798,0.2545207078751856,1.868299346513839,0.18749588872038958,0.41418088540629905
0.9,0.9602936856769432,0.2679133974894983,1.889968183021269,0.17981481239912916,0.41447566481087555
0.95,0.95579301479833,0.2810416889260653,1.9124155867672477,0.17169443853326533,0.41495560247439256
1.0,0.9510565162951536,0.2938926261462365,1.9357012818422008,0.1631395894423935,0.41564642481964414
1.05,0.9460853588275452,0.3064535268264882,1.9598868718181703,0.15415745294410085,0.4165738522503219
1.1,0.9408807689542256,0.3187119948743449,1.9850355649117704,0.14475825221287958,0.41776303545736415
1.15,0.9354440308298672,0.3306559326618259,2.0112117710681336,0.13495605193462618,0.4192378524660177
1.2000000000000002,0.9297764858882512,0.3422735529643443,2.038480543411672,0.12476971483539989,0.42102004775984003
1.25,0.9238795325112868,0.3535533905932738,2.0669068336579284,0.1142240181348114,0.423128197940386
1.3,0.9177546256839813,0.3644843137107058,2.09655452921512,0.10335093143171863,0.42557649477305665
1.35,0.9114032766354452,0.3750555348152297,2.1274852395661,0.09219104480645075,0.4283733473175857
1.4,0.9048270524660196,0.3852566213878946,2.1597568020872133,0.0807951173168899,0.43151982140856227
1.4500000000000002,0.8980275757606156,0.3950775061878452,2.1934214839353343,0.06922569056823627,0.43500795816074606
1.5,0.8910065241883679,0.4045084971874737,2.228523868394605,0.05755867921861341,0.43881904404642463
1.55,0.8837656300886935,0.4135402871372809,2.265098432522963,0.0458848108441833,0.4429219430121782
1.6,0.8763066800438636,0.4221639627510075,2.303166849242188,0.03431074406137181,0.4472716439236192
1.65,0.8686315144381913,0.4303710135019717,2.3427350816970653,0.022959651304368937,0.4518082197187608
1.7000000000000002,0.8607420270039436,0.4381533400219318,2.383790380104094,0.011971019430004257,0.4564564303166958
1.75,0.8526401643540923,0.4455032620941839,2.426298338943764,0.0014994087355522342,0.4611262187476962
1.8,0.8443279255020151,0.4524135262330098,2.470200220386377,-0.008288067559483085,0.46571433615545355
1.85,0.8358073613682703,0.4588773128419905,2.5154107908421715,-0.017215712909215745,0.4701072735276152
1.9,0.8270805742745618,0.4648882429441257,2.561816941836501,-0.02510471210876894,0.4741855677216271
1.95,0.8181497174250234,0.4704403844771128,2.609277363450286,-0.03177996002300309,0.4778293873163168
2.0,0.8090169943749475,0.4755282581475767,2.6576234991362933,-0.037077909164999145,0.4809251046693219
2.0500000000000003,0.7996846584870905,0.4801468428384716,2.7066619300511383,-0.04085487218633213,0.48337235474732637
2.1,0.7901550123756904,0.4842915805643155,2.756178217799821,-0.04299503777768819,0.4850909120012242
2.15,0.7804304073383298,0.4879583809693736,2.805942088609574,-0.04341737105568288,0.4860266304731173
2.2,0.7705132427757891,0.4911436253643443,2.8557136900872355,-0.04208060998665,0.4861557257509933
2.25,0.7604059656000309,0.4938441702975689,2.9052505197282508,-0.03898574963386575,0.4854868421072434
2.3000000000000003,0.7501110696304595,0.4960573506572389,2.954314537334564,-0.03417570337085883,0.48406062306129727
2.35,0.7396310949786097,0.49778098230154,3.002678949097496,-0.027732189959375958,0.48194683695589224
2.4000000000000004,0.7289686274214116,0.4990133642141358,3.0501341943946345,-0.019770244845190642,0.47923943206168207
2.45,0.7181262977631888,0.4997532801828658,3.096492768355988,-0.010431023528401277,0.4760501424032934
2.5,0.7071067811865476,0.5,3.141592653589793,0.00012629234699031917,0.47250139213970355
2.5500000000000003,0.6959127965923142,0.4997532801828658,3.1852992871170183,0.011732672259388618,0.4687192416808864
2.6,0.6845471059286886,0.4990133642141358,3.2275061286410347,0.024216799504906596,0.4648270029702242
2.6500000000000004,0.6730125135097733,0.49778098230154,3.268134005368498,0.03741151432395713,0.4609399654870633
2.7,0.6613118653236519,0.4960573506572389,3.3071294774596987,0.05115885307108288,0.457161465606598
2.75,0.6494480483301838,0.4938441702975689,3.344462496525175,0.06531360465918787,0.4535803402782725
2.8000000000000003,0.6374239897486897,0.4911436253643443,3.3801236237560865,0.07974546802087,0.4502696575447333
2.85,0.6252426563357052,0.4879583809693737,3.414121044155661,0.0943400019037716,0.447286521485541
2.9000000000000004,0.6129070536529764,0.4842915805643155,3.446477569437459,0.1089986125226866,0.4446727052424934
2.95,0.600420225325884,0.4801468428384715,3.4772277735869848,0.12363783537718043,0.442455862578184
3.0,0.5877852522924731,0.4755282581475768,3.506415358551248,0.13818814823081713,0.44065109270929576
3.0500000000000003,0.5750052520432785,0.4704403844771127,3.5340908071489388,0.1525925158022398,0.4392626723381937
3.1,0.5620833778521306,0.4648882429441257,3.560309347980007,0.1668048236377214,0.43828581286527246
3.1500000000000004,0.5490228179981317,0.4588773128419905,3.5851292331237183,0.18078831622515745,0.4377083428899186
3.2,0.5358267949789965,0.4524135262330097,3.6086103129929823,0.1945141169740768,0.4375122524404126
3.25,0.5224985647159489,0.4455032620941839,3.6308128825913895,0.20795987716184247,0.43767506433400233
3.3000000000000003,0.5090414157503714,0.4381533400219318,3.651796768181349,0.22110857765171704,0.43817101960678373
3.35,0.4954586684324075,0.4303710135019718,3.671620621678942,0.23394749048980107,0.4389720788881907
3.4000000000000004,0.4817536741017151,0.4221639627510075,3.6903413908002456,0.2464672962999313,0.4400487511278283
3.45,0.4679298142605733,0.4135402871372808,3.7080139351865866,0.2586613465169039,0.44137076647904416
3.5,0.4539904997395468,0.4045084971874737,3.724690761753128,0.2705250558051102,0.4429076125552484
3.5500000000000003,0.4399391698559151,0.3950775061878451,3.7404218558556126,0.28205540854684574,0.4446289536594761
3.6,0.4257792915650726,0.3852566213878946,3.7552545882343034,0.2932505632948277,0.44650495169037374
3.65,0.4115143586051086,0.3750555348152297,3.7692336808739753,0.304109539998003,0.44850650579748297
3.7,0.3971478906347805,0.3644843137107057,3.7824012178046047,0.31463197621962735,0.4506054258818446
3.75,0.3826834323650898,0.3535533905932738,3.794796689410472,0.3248179401922828,0.4527745529700074
3.8,0.3681245526846781,0.3422735529643444,3.806457061006817,0.3346677902147598,0.454987837490233
3.85,0.3534748437792571,0.3306559326618259,3.817416858298261,0.3441820714794931,0.45722038464067716
3.9,0.3387379202452912,0.3187119948743447,3.82770826388112,0.35336144286573984,0.4594484744040313
3.95,0.3239174181981494,0.3064535268264882,3.83736122022746,0.3622066275153423,0.4616495623454072
4.0,0.3090169943749474,0.2938926261462366,3.846403535629172,0.37071838211855895,0.4638022661242818
4.05,0.2940403252323041,0.2810416889260654,3.854860990420536,0.3788974807835884,0.46588634164148346
4.1000000000000005,0.278991106039229,0.2679133974894981,3.862757441470456,0.38674471015845424,0.46788265190697687
4.15,0.2638730499653727,0.2545207078751855,3.870114923469258,0.39426087313576896,0.46977313103036566
4.2,0.2486898871648547,0.2408768370508576,3.87695374595464,0.4014467990156407,0.47154074518193656
4.25,0.2334453638559054,0.2269952498697734,3.8832925853485216,0.4083033584482862,0.4731694519263475
4.3,0.2181432413965427,0.2128896457825364,3.889148571528516,0.4148314818412722,0.47464415897504986
4.3500000000000005,0.2027872953565125,0.1985739453173903,3.894537368649672,0.42103218020949046,0.4759506831217445
4.4,0.1873813145857245,0.1840622763423388,3.8994732500760194,0.4269065676828067,0.4770757099034516
4.45,0.1719291002794095,0.1693689601226456,3.903969167387153,0.43245588507619487,0.4780067543564213
4.5,0.1564344650402309,0.1545084971874737,3.908036813500702,0.4376815240789319,0.4787321231019227
4.55,0.1409012319375828,0.1394955530196147,3.9116866800034753,0.44258505174072543,0.4792408778938879
4.6000000000000005,0.125333233564304,0.1243449435824271,3.914928108817497,0.44716823502886266,0.4795228006819809
4.65,0.1097343110910451,0.1090716206982711,3.9177693383462615,0.45143306530723737,0.47956836018481724
4.7,0.0941083133185142,0.0936906572928622,3.9202175442544815,0.4553817826488916,0.47936867992419946
4.75,0.078459095727845,0.0782172325201154,3.9222788750340194,0.45901689994189576,0.4789155076397965
4.800000000000001,0.0627905195293133,0.062666616782152,3.923958482501687,0.46234122678697553,0.47820118598128575
4.8500000000000005,0.0471064507096426,0.0470541566592571,3.9252605473625497,0.4653578932157316,0.477218624359672
4.9,0.0314107590781281,0.0313952597646565,3.926188299956748,0.4680703732827137,0.4759612718299325
4.95,0.0157073173118206,0.0157053795390641,3.926744036289427,0.47048250860436375,0.474423090871818
5.0,6.123233995736766e-17,6.123233995736766e-17,3.926929129423029,0.47259853193363155,0.47259853193363155
5.050000000000001,-0.0157073173118209,-0.0157053795390644,3.926744036289427,0.4744230908718248,0.4704825086043706
5.1000000000000005,-0.0314107590781285,-0.0313952597646568,3.926188299956748,0.475961271829929,0.46807037328271034
5.15,-0.0471064507096427,-0.0470541566592572,3.9252605473625497,0.47721862435966855,0.46535789321572824
5.2,-0.0627905195293134,-0.0626666167821521,3.923958482501687,0.47820118598128236,0.46234122678697226
5.25,-0.0784590957278448,-0.0782172325201153,3.9222788750340194,0.4789155076397965,0.45901689994189576
5.300000000000001,-0.0941083133185143,-0.0936906572928623,3.9202175442544815,0.4793686799242062,0.4553817826488982
5.3500000000000005,-0.1097343110910454,-0.1090716206982714,3.9177693383462615,0.4795683601848185,0.4514330653072363
5.4,-0.1253332335643041,-0.1243449435824272,3.914928108817496,0.479522800681973,0.4471682350288573
5.45,-0.1409012319375827,-0.1394955530196146,3.911686680003476,0.4792408778938781,0.44258505174072266
5.5,-0.1564344650402306,-0.1545084971874734,3.908036813500703,0.4787321231019315,0.437681524078936
5.550000000000001,-0.1719291002794098,-0.1693689601226459,3.9039691673871526,0.4780067543564298,0.4324558850761986
5.6000000000000005,-0.1873813145857246,-0.1840622763423389,3.8994732500760194,0.4770757099034459,0.42690656768280577
5.65,-0.2027872953565125,-0.1985739453173904,3.894537368649672,0.47595068312174127,0.42103218020948735
5.7,-0.2181432413965425,-0.2128896457825363,3.889148571528516,0.47464415897505036,0.41483148184126556
5.75,-0.2334453638559053,-0.2269952498697733,3.8832925853485207,0.47316945192635745,0.4083033584482891
5.800000000000001,-0.248689887164855,-0.2408768370508578,3.876953745954639,0.47154074518193495,0.4014467990156485
5.8500000000000005,-0.2638730499653728,-0.2545207078751856,3.870114923469259,0.4697731310303593,0.3942608731357744
5.9,-0.2789911060392293,-0.2679133974894984,3.862757441470457,0.46788265190697564,0.38674471015844364
5.95,-0.2940403252323038,-0.2810416889260651,3.854860990420535,0.4658863416414764,0.37889748078358376
6.0,-0.3090169943749473,-0.2938926261462365,3.846403535629173,0.4638022661242842,0.37071838211856833
6.050000000000001,-0.3239174181981494,-0.3064535268264883,3.83736122022746,0.4616495623454162,0.36220662751534427
6.1000000000000005,-0.3387379202452915,-0.318711994874345,3.82770826388112,0.45944847440403014,0.353361442865741
6.15,-0.3534748437792572,-0.330655932661826,3.817416858298262,0.4572203846406733,0.34418207147948693
6.2,-0.368124552684678,-0.3422735529643443,3.806457061006817,0.4549878374902364,0.3346677902147514
6.25,-0.3826834323650897,-0.3535533905932737,3.794796689410471,0.45277455297000996,0.3248179401922853
6.300000000000001,-0.3971478906347807,-0.3644843137107058,3.782401217804604,0.4506054258818438,0.31463197621963834
6.3500000000000005,-0.4115143586051089,-0.3750555348152299,3.769233680873976,0.44850650579748247,0.30410953999800244
6.4,-0.4257792915650727,-0.3852566213878947,3.755254588234302,0.44650495169037563,0.29325056329482013
6.45,-0.4399391698559151,-0.3950775061878452,3.740421855855612,0.44462895365947214,0.2820554085468465
6.5,-0.4539904997395467,-0.4045084971874736,3.724690761753128,0.44290761255525013,0.27052505580511427
6.550000000000001,-0.4679298142605736,-0.4135402871372811,3.708013935186586,0.44137076647904694,0.2586613465168995
6.6000000000000005,-0.481753674101715,-0.4221639627510073,3.6903413908002447,0.4400487511278194,0.24646729629993425
6.65,-0.4954586684324076,-0.4303710135019719,3.671620621678944,0.4389720788881898,0.23394749048980257
6.7,-0.5090414157503713,-0.4381533400219318,3.651796768181348,0.43817101960678745,0.22110857765170905
6.75,-0.5224985647159488,-0.4455032620941839,3.630812882591389,0.43767506433401004,0.20795987716184533
6.800000000000001,-0.5358267949789969,-0.4524135262330099,3.608610312992981,0.43751225244041975,0.19451411697407692
6.8500000000000005,-0.5490228179981319,-0.4588773128419906,3.585129233123717,0.43770834288991345,0.18078831622515693
6.9,-0.5620833778521307,-0.4648882429441257,3.5603093479800068,0.4382858128652641,0.16680482363772725
6.95,-0.5750052520432786,-0.4704403844771127,3.53409080714894,0.4392626723381878,0.15259251580224098
7.0,-0.587785252292473,-0.4755282581475767,3.5064153585512488,0.44065109270929576,0.13818814823081235
7.050000000000001,-0.6004202253258839,-0.4801468428384715,3.4772277735869848,0.44245586257818886,0.12363783537718298
7.1000000000000005,-0.6129070536529766,-0.4842915805643156,3.44647756943746,0.4446727052424935,0.10899861252268915
7.15,-0.6252426563357052,-0.4879583809693737,3.414121044155661,0.4472865214855398,0.09434000190376798
7.2,-0.6374239897486897,-0.4911436253643443,3.3801236237560865,0.45026965754473436,0.07974546802086394
7.25,-0.6494480483301835,-0.4938441702975688,3.344462496525174,0.45358034027827365,0.06531360465918905
7.300000000000001,-0.661311865323652,-0.4960573506572389,3.3071294774596987,0.4571614656065992,0.05115885307108883
7.35,-0.6730125135097734,-0.49778098230154,3.268134005368498,0.4609399654870633,0.03741151432395713
7.4,-0.6845471059286887,-0.4990133642141358,3.2275061286410347,0.464827002970223,0.02421679950490777
7.45,-0.6959127965923143,-0.4997532801828658,3.1852992871170187,0.4687192416808901,0.01173267225938032
7.5,-0.7071067811865475,-0.5,3.141592653589791,0.4725013921397059,0.00012629234699031917
7.550000000000001,-0.718126297763189,-0.4997532801828657,3.096492768355988,0.47605014240328275,-0.01043102352839298
7.6,-0.7289686274214113,-0.4990133642141358,3.050134194394636,0.4792394320616761,-0.019770244845189574
7.65,-0.7396310949786097,-0.49778098230154,3.002678949097497,0.48194683695589824,-0.02773218995937713
7.7,-0.7501110696304595,-0.4960573506572389,2.954314537334564,0.48406062306130193,-0.034175703370863515
7.75,-0.7604059656000309,-0.4938441702975689,2.9052505197282503,0.4854868421072459,-0.0389857496338633
7.800000000000001,-0.7705132427757894,-0.4911436253643443,2.8557136900872355,0.48615572575099447,-0.042080609986651175
7.85,-0.7804304073383298,-0.4879583809693736,2.805942088609573,0.4860266304731208,-0.04341737105569118
7.9,-0.7901550123756904,-0.4842915805643155,2.756178217799819,0.48509091200122084,-0.04299503777768447
7.95,-0.7996846584870905,-0.4801468428384715,2.7066619300511388,0.4833723547473192,-0.04085487218632755
8.0,-0.8090169943749473,-0.4755282581475768,2.6576234991362933,0.48092510466932303,-0.03707790916500277
8.05,-0.8181497174250233,-0.4704403844771128,2.609277363450285,0.4778293873163143,-0.0317799600230033
8.1,-0.8270805742745616,-0.4648882429441258,2.561816941836501,0.47418556772162845,-0.025104712108767663
8.15,-0.8358073613682703,-0.4588773128419905,2.515410790842171,0.4701072735276152,-0.017215712909203935
8.200000000000001,-0.8443279255020153,-0.4524135262330095,2.4702002203863795,0.4657143361554538,-0.008288067559487553
8.25,-0.8526401643540922,-0.445503262094184,2.426298338943762,0.46112621874770554,0.0014994087355403192
8.3,-0.8607420270039438,-0.4381533400219317,2.3837903801040925,0.456456430316691,0.01197101943000649
8.35,-0.8686315144381911,-0.4303710135019719,2.3427350816970653,0.45180821971875673,0.022959651304369683
8.4,-0.8763066800438636,-0.4221639627510075,2.303166849242188,0.44727164392362695,0.034310744061374784
8.450000000000001,-0.8837656300886936,-0.4135402871372807,2.265098432522962,0.4429219430121717,0.04588481084418628
8.5,-0.8910065241883678,-0.4045084971874738,2.2285238683946065,0.4388190440464253,0.0575586792186117
8.55,-0.8980275757606158,-0.395077506187845,2.193421483935333,0.4350079581607479,0.06922569056823107
8.6,-0.9048270524660194,-0.3852566213878948,2.1597568020872133,0.43151982140854483,0.08079511731690309
8.65,-0.9114032766354452,-0.3750555348152297,2.1274852395661044,0.4283733473175848,0.09219104480645714
8.700000000000001,-0.9177546256839813,-0.3644843137107058,2.0965545292151213,0.4255764947730691,0.10335093143170511
8.75,-0.9238795325112868,-0.3535533905932738,2.066906833657928,0.4231281979403875,0.11422401813481521
8.8,-0.9297764858882516,-0.3422735529643441,2.0384805434116737,0.4210200477598413,0.1247697148353965
8.85,-0.9354440308298672,-0.3306559326618261,2.0112117710681323,0.41923785246602685,0.13495605193461288
8.9,-0.9408807689542256,-0.3187119948743448,1.985035564911768,0.41776303545735577,0.14475825221289126
8.950000000000001,-0.9460853588275452,-0.3064535268264882,1.959886871818173,0.4165738522503079,0.1541574529441117
9.0,-0.9510565162951536,-0.2938926261462367,1.935701281842203,0.4156464248196556,0.16313958944237883
9.05,-0.95579301479833,-0.2810416889260654,1.912415586767245,0.41495560247440394,0.17169443853325086
9.1,-0.960293685676943,-0.2679133974894985,1.8899681830212665,0.4144756648108684,0.17981481239914085
9.15,-0.964557418457798,-0.2545207078751856,1.86829934651384,0.41418088540629466,0.18749588872040768
9.2,-0.9685831611286312,-0.2408768370508572,1.8473514036443195,0.41404597578018404,0.1947346610052701
9.25,-0.9723699203976766,-0.2269952498697734,1.8270688193361564,0.4140464285547773,0.20152949265411224
9.3,-0.9759167619387474,-0.2128896457825361,1.8073982196949945,0.4141587772883914,0.20787975901306258
9.35,-0.9792228106217656,-0.1985739453173906,1.7882883639003946,0.41436078856204556,0.21378556298414333
9.4,-0.9822872507286888,-0.1840622763423389,1.7696900772863489,0.41463159985703174,0.2192475113581633
9.45,-0.985109326154774,-0.1693689601226453,1.751556155262607,0.41495181475141946,0.22426654071602084
9.5,-0.9876883405951375,-0.1545084971874738,1.733841245767694,0.4153035650938152,0.22884378337395087
